ETH Simulated time (yr AD),ETH solar modulation parameter (MeV),ETH solar modulation parameter sig (MeV),QL Simulated time (yr AD),QL solar modulation parameter (MeV),Sunspot times (yr AD),Sunspots
970.916666666666,635.451604748368,246.413790545567,1511.91666666666,267.709242981598,1700.5,8.3
971,634.420754116845,236.372575349932,1512,269.171266321531,1700.58333333333,9.13333333333257
971.083333333333,633.290305195318,226.429970635825,1512.08333333333,270.686705803014,1700.66666666666,9.96666666666742
971.166666666666,632.046772138305,216.617683980878,1512.16666666666,272.254206894336,1700.75,10.8
971.25,630.676279849799,206.966825084532,1512.25,273.872189142562,1700.83333333333,11.6333333333325
971.333333333333,629.164649466223,197.50769525099,1512.33333333333,275.538842025533,1700.91666666666,12.4666666666674
971.416666666666,627.497489917116,188.269583972146,1512.41666666666,277.252121334908,1701,13.3
971.5,625.660294741699,179.280574551453,1512.5,279.009746198168,1701.08333333333,14.1333333333325
971.583333333333,623.638543157247,170.567360409244,1512.58333333333,280.809196881,1701.16666666666,14.9666666666674
971.666666666666,621.417804279825,162.155073444502,1512.66666666666,282.647713536135,1701.25,15.8
971.75,618.983843382784,154.067125601584,1512.75,284.522296080382,1701.33333333333,16.6333333333325
971.833333333333,616.322729135059,146.325064609098,1512.83333333333,286.429705388727,1701.41666666666,17.4666666666674
971.916666666666,613.420940881798,138.948444728834,1512.91666666666,288.366465993001,1701.5,18.3
972,610.265475204342,131.954713277231,1513,290.328870463128,1701.58333333333,18.9999999999993
972.083333333333,606.843951202356,125.35911364535,1513.08333333333,292.312985633194,1701.66666666666,19.7000000000006
972.166666666666,603.144714126322,119.174605505244,1513.16666666666,294.314660816933,1701.75,20.4
972.25,599.156937086182,113.411802801439,1513.25,296.329538143971,1701.83333333333,21.0999999999993
972.333333333333,594.870720540954,108.078929965351,1513.33333333333,298.353065141801,1701.91666666666,21.8000000000006
972.416666666666,590.277189172077,103.181796582965,1513.41666666666,300.380509684885,1702,22.5
972.5,585.368585628254,98.7237905352616,1513.5,302.406977424771,1702.08333333333,23.1999999999993
972.583333333333,580.138360547407,94.7058894456027,1513.58333333333,304.427431798878,1702.16666666666,23.9000000000006
972.666666666666,574.581258224465,91.1266901161675,1513.66666666666,306.436716689656,1702.25,24.6
972.75,568.693397300654,87.9824555138357,1513.75,308.429581770164,1702.33333333333,25.2999999999993
972.833333333333,562.472345897509,85.2671787700654,1513.83333333333,310.400710527205,1702.41666666666,26.0000000000006
972.916666666666,555.917190704909,82.97266358526,1513.91666666666,312.344750899409,1702.5,26.7
973,549.028599652876,81.0886203714136,1514,314.256348405522,1702.58333333333,27.6666666666657
973.083333333333,541.808877935118,79.6027774220517,1514.08333333333,316.130181569675,1702.66666666666,28.6333333333342
973.166666666666,534.262017265149,78.5010063545448,1514.16666666666,317.960999380527,1702.75,29.5999999999999
973.25,526.393738275333,77.7674610075374,1514.25,319.743660456324,1702.83333333333,30.5666666666657
973.333333333333,518.211525890564,77.3847288797364,1514.33333333333,321.473173530882,1702.91666666666,31.5333333333342
973.416666666666,509.724657357126,77.3339940680474,1514.41666666666,323.14473882206,1703,32.5
973.5,500.94422244679,77.5952105196629,1514.5,324.753789787419,1703.08333333333,33.4666666666657
973.583333333333,491.883135228702,78.1472842689648,1514.58333333333,326.296034706994,1703.16666666666,34.4333333333342
973.666666666666,482.556136720067,78.9682631914732,1514.66666666666,327.767497459541,1703.25,35.4
973.75,472.979787690604,80.0355326728165,1514.75,329.164556776763,1703.33333333333,36.3666666666657
973.833333333333,463.172450903613,81.3260154588227,1514.83333333333,330.483983170668,1703.41666666666,37.3333333333342
973.916666666666,453.154262126469,82.8163738226111,1514.91666666666,331.722972632871,1703.5,38.3
974,442.947089333383,84.4832120578863,1515,332.879176104146,1703.58333333333,40.1083333333316
974.083333333333,432.574479647259,86.3032771976767,1515.08333333333,333.95072362415,1703.66666666666,41.9166666666683
974.166666666666,422.061593711224,88.2536558021287,1515.16666666666,334.936242039428,1703.75,43.7249999999999
974.25,411.435127325153,90.3119647046419,1515.25,335.834865232271,1703.83333333333,45.5333333333316
974.333333333333,400.723220320371,92.45653376081,1515.33333333333,336.646236057331,1703.91666666666,47.3416666666683
974.416666666666,389.955352787586,94.6665788629228,1515.41666666666,337.37049949635,1704,49.15
974.5,379.162228938865,96.9223637106244,1515.5,338.008286895083,1704.08333333333,50.9583333333316
974.583333333333,368.375649086929,99.2053490465518,1515.58333333333,338.560691485668,1704.16666666666,52.7666666666683
974.666666666666,357.628370467749,101.498328275681,1515.66666666666,339.029235710231,1704.25,54.575
974.75,346.953957914651,103.785548583213,1515.75,339.415831149807,1704.33333333333,56.3833333333316
974.833333333333,336.386625712585,106.05281683634,1515.83333333333,339.722732130699,1704.41666666666,58.1916666666683
974.916666666666,325.961072318641,108.287589694486,1515.91666666666,339.952484331734,1704.5,60
975,315.712310023592,110.479047464077,1516,340.107869950999,1704.58333333333,63.0583333333305
975.083333333333,305.675492015408,112.618151328893,1516.08333333333,340.191851194944,1704.66666666666,66.1166666666694
975.166666666666,295.885739596364,114.697683684697,1516.16666666666,340.207513979794,1704.75,69.175
975.25,286.377972374311,116.712271425109,1516.25,340.158013721558,1704.83333333333,72.2333333333305
975.333333333333,277.186744041027,118.658392166178,1516.33333333333,340.046524910804,1704.91666666666,75.2916666666694
975.416666666666,268.346085944183,120.534363546068,1516.41666666666,339.87619586675,1705,78.35
975.5,259.889360192427,122.340315883361,1516.5,339.650109717626,1705.08333333333,81.4083333333305
975.583333333333,251.849123598077,124.078148620506,1516.58333333333,339.371252311472,1705.16666666666,84.4666666666694
975.666666666666,244.257003385889,125.751471113511,1516.66666666666,339.042487438533,1705.25,87.525
975.75,237.143585276942,127.365528446959,1516.75,338.666539442646,1705.33333333333,90.5833333333305
975.833333333333,230.538314287498,128.927113052277,1516.83333333333,338.245983011872,1705.41666666666,93.6416666666694
975.916666666666,224.469408357985,130.444462994735,1516.91666666666,337.783239665714,1705.5,96.7
976,218.96378474123,131.927147879172,1517,337.280580197476,1705.58333333333,92.6666666666703
976.083333333333,214.046998923444,133.38594340601,1517.08333333333,336.740132095437,1705.66666666666,88.6333333333296
976.166666666666,209.743195711382,134.832695690794,1517.16666666666,336.163890786661,1705.75,84.6
976.25,206.075071976753,136.280176557505,1517.25,335.553733464862,1705.83333333333,80.5666666666703
976.333333333333,203.06385039472,137.741931133239,1517.33333333333,334.911434295498,1705.91666666666,76.5333333333296
976.416666666666,200.729263353076,139.232119189748,1517.41666666666,334.238679907193,1706,72.5
976.5,199.089546054824,140.765351772636,1517.5,333.537084227707,1706.08333333333,68.4666666666703
976.583333333333,198.16143769678,142.356524725482,1517.58333333333,332.808201871547,1706.16666666666,64.4333333333296
976.666666666666,197.960189480174,144.02065075885,1517.66666666666,332.053539424911,1706.25,60.4
976.75,198.499578092659,145.772691741726,1517.75,331.274564102911,1706.33333333333,56.3666666666703
976.833333333333,199.791923190762,147.627392911906,1517.83333333333,330.47270937583,1706.41666666666,52.3333333333296
976.916666666666,201.848107304065,149.599120711855,1517.91666666666,329.64937727741,1706.5,48.3
977,204.677596476176,151.701705952354,1518,328.805937220409,1706.58333333333,47.0500000000011
977.083333333333,208.288459866605,153.948293984277,1518.08333333333,327.943721254057,1706.66666666666,45.7999999999988
977.166666666666,212.687386506454,156.351203515441,1518.16666666666,327.064015805882,1706.75,44.55
977.25,217.879697489952,158.921795634584,1518.25,326.168050057421,1706.83333333333,43.3000000000011
977.333333333333,223.8693521143,161.670354485898,1518.33333333333,325.256981210568,1706.91666666666,42.0499999999988
977.416666666666,230.658946802805,164.605980872201,1518.41666666666,324.331877009253,1707,40.8
977.5,238.249705981977,167.736499860129,1518.5,323.393695990558,1707.08333333333,39.5500000000011
977.583333333333,246.6414643804,171.068383226202,1518.58333333333,322.443266050616,1707.16666666666,38.2999999999988
977.666666666666,255.832640460672,174.606687326186,1518.66666666666,321.481262024268,1707.25,37.05
977.75,265.820200885982,178.355006696214,1518.75,320.508183093712,1707.33333333333,35.8000000000011
977.833333333333,276.599616061696,182.315443403156,1518.83333333333,319.524330960765,1707.41666666666,34.5499999999988
977.916666666666,288.164806880284,186.488591855054,1518.91666666666,318.529789839931,1707.5,33.3
978,300.50808283881,190.873538466854,1519,317.52440945332,1707.58333333333,31.9166666666679
978.083333333333,313.620071718814,195.467875275307,1519.08333333333,316.507792317221,1707.66666666666,30.533333333332
978.166666666666,327.489641094271,200.267726365837,1519.16666666666,315.479286657711,1707.75,29.15
978.25,342.103812164627,205.26778588267,1519.25,314.437986216165,1707.83333333333,27.7666666666679
978.333333333333,357.447666832717,210.46136645638,1519.33333333333,313.382737977971,1707.91666666666,26.383333333332
978.416666666666,373.504249485275,215.840457035397,1519.41666666666,312.312158519235,1708,25
978.5,390.25446546375,221.395789264857,1519.5,311.22465928788,1708.08333333333,23.6166666666679
978.583333333333,407.676978656422,227.116911669012,1519.58333333333,310.118480765523,1708.16666666666,22.233333333332
978.666666666666,425.748110977994,232.992270947393,1519.66666666666,308.991735110091,1708.25,20.8499999999999
978.75,444.441746732762,239.009299687915,1519.75,307.84245655595,1708.33333333333,19.4666666666679
978.833333333333,463.729244987333,245.154509736282,1519.83333333333,306.668658545647,1708.41666666666,18.083333333332
978.916666666666,483.579363112501,251.41359035047,1519.91666666666,305.468396282529,1708.5,16.7
979,503.958194595919,257.771510128939,1520,304.23983312647,1708.58333333333,16.4166666666669
979.083333333333,524.829124087144,264.212621560295,1520.08333333333,302.981309018845,1708.66666666666,16.133333333333
979.166666666666,546.152802435602,270.720766950116,1520.16666666666,301.691408958574,1708.75,15.85
979.25,567.887144246325,277.279384494945,1520.25,300.369029514087,1708.83333333333,15.5666666666669
979.333333333333,589.987350218348,283.871613404141,1520.33333333333,299.013441468171,1708.91666666666,15.283333333333
979.416666666666,612.405956229355,290.480397151741,1520.41666666666,297.624346913763,1709,15
979.5,635.092910758573,297.088584083196,1520.5,296.201929382338,1709.08333333333,14.7166666666669
979.583333333333,657.99568177912,303.679024663707,1520.58333333333,294.746895848491,1709.16666666666,14.433333333333
979.666666666666,681.059393695865,310.234664655914,1520.66666666666,293.260509702258,1709.25,14.15
979.75,704.226994256149,316.738633499436,1520.75,291.74461401561,1709.33333333333,13.8666666666669
979.833333333333,727.439450620047,323.174327156382,1520.83333333333,290.20164465448,1709.41666666666,13.583333333333
979.916666666666,750.635972945594,329.525484675671,1520.91666666666,288.634633004957,1709.5,13.3
980,773.754262934663,335.776257690697,1521,287.047198293196,1709.58333333333,12.6083333333339
980.083333333333,796.730783872888,341.911271995129,1521.08333333333,285.443529678088,1709.66666666666,11.916666666666
980.166666666666,819.501047991126,347.915680302943,1521.16666666666,283.828358466508,1709.75,11.225
980.25,841.999916751404,353.775205415336,1521.25,282.206920918706,1709.83333333333,10.5333333333339
980.333333333333,864.161910014301,359.476173362831,1521.33333333333,280.584912166619,1709.91666666666,9.84166666666603
980.416666666666,885.921520766293,365.005536595263,1521.41666666666,278.968431778342,1710,9.15
980.5,907.213532839933,370.350887801471,1521.5,277.363921497687,1710.08333333333,8.45833333333396
980.583333333333,927.973339638324,375.500465340044,1521.58333333333,275.77809568847,1710.16666666666,7.76666666666603
980.666666666666,948.137262232616,380.443151515551,1521.66666666666,274.217865025197,1710.25,7.075
980.75,967.642865359685,385.168465041319,1521.75,272.690253994941,1710.33333333333,6.38333333333396
980.833333333333,986.429269834486,389.666548997464,1521.83333333333,271.202312808578,1710.41666666666,5.69166666666603
980.916666666666,1004.4374597302,393.928155437103,1521.91666666666,269.761024362241,1710.5,5
981,1021.6105823943,397.944627540743,1522,268.373206941509,1710.58333333333,4.58333333333371
981.083333333333,1037.89423902152,401.707879907807,1522.08333333333,267.045413422666,1710.66666666666,4.16666666666628
981.166666666666,1053.23676324043,405.210377277761,1522.16666666666,265.783827802266,1710.75,3.75
981.25,1067.58948517434,408.445111794443,1522.25,264.594159985129,1710.83333333333,3.33333333333371
981.333333333333,1080.90697878526,411.405578931475,1522.33333333333,263.481539884124,1710.91666666666,2.91666666666628
981.416666666666,1093.14729088172,414.085752352293,1522.41666666666,262.450412027325,1711,2.5
981.5,1104.27215076502,416.480058194203,1522.5,261.50443202027,1711.08333333333,2.08333333333371
981.583333333333,1114.24715997939,418.583349472369,1522.58333333333,260.646366367108,1711.16666666666,1.66666666666628
981.666666666666,1123.04196199436,420.390881468888,1522.66666666666,259.87799731231,1711.25,1.25
981.75,1130.63039190019,421.898289093032,1522.75,259.200034524185,1711.33333333333,0.833333333333712
981.833333333333,1136.99060635909,423.101567266564,1522.83333333333,258.612035602555,1711.41666666666,0.416666666666287
981.916666666666,1142.10519414281,423.997055413877,1522.91666666666,258.112337555709,1711.5,0
982,1145.96126761487,424.581427145474,1523,257.69800155229,1711.58333333333,0
982.083333333333,1148.55053549455,424.851686228642,1523.08333333333,257.364773386708,1711.66666666666,0
982.166666666666,1149.86935717957,424.80516991972,1523.16666666666,257.107062130297,1711.75,0
982.25,1149.91877881177,424.439560643025,1523.25,256.917939277316,1711.83333333333,0
982.333333333333,1148.70455115442,423.752906818234,1523.33333333333,256.789160292652,1711.91666666666,0
982.416666666666,1146.23712922005,422.743653379742,1523.41666666666,256.711209887606,1712,0
982.5,1142.53165345651,421.410682232899,1523.5,256.673371698995,1712.08333333333,0
982.583333333333,1137.60791217468,419.753362564948,1523.58333333333,256.66382239769,1712.16666666666,0
982.666666666666,1131.49028479221,417.771610561408,1523.66666666666,256.669749627207,1712.25,0
982.75,1124.20766537964,415.465957665784,1523.75,256.677492570226,1712.33333333333,0
982.833333333333,1115.79336593452,412.837626084955,1523.83333333333,256.672703356952,1712.41666666666,0
982.916666666666,1106.28499878137,409.888609825353,1523.91666666666,256.640526960648,1712.5,0
983,1095.7243375044,406.621759174973,1524,256.565796673578,1712.58333333333,0.274999999999749
983.083333333333,1084.15715586702,403.040866238488,1524.08333333333,256.433241745345,1712.66666666666,0.55000000000025
983.166666666666,1071.63304424729,399.150748921703,1524.16666666666,256.227703368604,1712.75,0.825
983.25,1058.20520320796,394.957330700906,1524.25,255.934355013107,1712.83333333333,1.09999999999974
983.333333333333,1043.93021392067,390.467713617363,1524.33333333333,255.538923176004,1712.91666666666,1.37500000000025
983.416666666666,1028.86778529145,385.690242157111,1524.41666666666,255.027904862001,1713,1.65
983.5,1013.08047781501,380.634555947206,1524.5,254.388778411896,1713.08333333333,1.92499999999974
983.583333333333,996.633404434545,375.311629493229,1524.58333333333,253.610204584108,1713.16666666666,2.20000000000025
983.666666666666,979.593909010006,369.733797496738,1524.66666666666,252.682215039458,1713.25,2.47499999999999
983.75,962.031223403098,363.914764622491,1524.75,251.596385587987,1713.33333333333,2.74999999999974
983.833333333333,944.016104672521,357.869598926035,1524.83333333333,250.345991734842,1713.41666666666,3.02500000000025
983.916666666666,925.620454441189,351.614708495515,1524.91666666666,248.926144216487,1713.5,3.3
984,906.916923141126,345.167801199603,1525,247.333902356365,1713.58333333333,4.54999999999886
984.083333333333,887.978502514922,338.547827755999,1525.08333333333,245.568363209794,1713.66666666666,5.80000000000113
984.166666666666,868.878110317833,331.774908624512,1525.16666666666,243.630724656176,1713.75,7.05
984.25,849.688171434659,324.870245454158,1525.25,241.524320890253,1713.83333333333,8.29999999999886
984.333333333333,830.480199518605,317.856017948489,1525.33333333333,239.254629186337,1713.91666666666,9.55000000000113
984.416666666666,811.324382891941,310.755267066623,1525.41666666666,236.829247322469,1714,10.8
984.5,792.28917802809,303.59176548968,1525.5,234.257841592027,1714.08333333333,12.0499999999988
984.583333333333,773.44091360257,296.38987628962,1525.58333333333,231.552065858888,1714.16666666666,13.3000000000011
984.666666666666,754.843407898129,289.174400762344,1525.66666666666,228.725452620111,1714.25,14.55
984.75,736.557602276309,281.970416449765,1525.75,225.793277531588,1714.33333333333,15.7999999999988
984.833333333333,718.641213476071,274.803106489943,1525.83333333333,222.772399331929,1714.41666666666,17.0500000000011
984.916666666666,701.148407663477,267.697581602542,1525.91666666666,219.681077572134,1714.5,18.3
985,684.129499420893,260.678696240288,1526,216.538771022837,1714.58333333333,20.5249999999979
985.083333333333,667.630679172036,253.770860712447,1526.08333333333,213.365920066071,1714.66666666666,22.750000000002
985.166666666666,651.693772738347,246.997851376923,1526.16666666666,210.183716718938,1714.75,24.975
985.25,636.356036607366,240.382621231238,1526.25,207.01386609241,1714.83333333333,27.1999999999979
985.333333333333,621.649991970093,233.947113345427,1526.33333333333,203.878343022177,1714.91666666666,29.425000000002
985.416666666666,607.603299766424,227.71207956029,1526.41666666666,200.79914738049,1715,31.65
985.5,594.238678077878,221.696906759435,1526.5,197.79806129301,1715.08333333333,33.8749999999979
985.583333333333,581.573862369665,215.91945286519,1526.58333333333,194.896411213208,1715.16666666666,36.100000000002
985.666666666666,569.621608353461,210.39589454366,1526.66666666666,192.114837570051,1715.25,38.325
985.75,558.389736616124,205.140588444982,1526.75,189.473074501597,1715.33333333333,40.5499999999979
985.833333333333,547.881217628629,200.165947648319,1526.83333333333,186.989742013699,1715.41666666666,42.775000000002
985.916666666666,538.094295304271,195.482334823624,1526.91666666666,184.682152755612,1715.5,45
986,529.022646906002,191.097973460457,1527,182.566135478129,1715.58333333333,47.7749999999974
986.083333333333,520.655576798529,187.018878340047,1527.08333333333,180.65587712091,1715.66666666666,50.5500000000025
986.166666666666,512.978241285548,183.248806232773,1527.16666666666,178.963785329539,1715.75,53.325
986.25,505.971901548394,179.789227590572,1527.25,177.5003729843,1715.83333333333,56.0999999999974
986.333333333333,499.614201498755,176.639319778505,1527.33333333333,176.274166011205,1715.91666666666,58.8750000000025
986.416666666666,493.879467177032,173.795982153978,1527.41666666666,175.291635367077,1716,61.65
986.5,488.7390241773,171.253873054948,1527.5,174.557153691077,1716.08333333333,64.4249999999974
986.583333333333,484.161529463674,169.005468504184,1527.58333333333,174.072976725625,1716.16666666666,67.2000000000025
986.666666666666,480.113313859487,167.041142184053,1527.66666666666,173.839249238263,1716.25,69.975
